-68.00
-65.00
-62.00
-59.00
-56.00
-53.00
-50.00
-47.00
-44.00
-41.00
-38.00
-35.00
-32.00
-29.00
-26.00
-23.00
-20.00
-17.00
-14.00
-11.00
-8.00
-5.00
-2.00
1.00
4.00
7.00
10.00
13.00
16.00
19.00
22.00